# Time,Pump,Signal,Idler,Depletion_pct
0.000000000000000000e+00,2.563436436113117001e+00,0.000000000000000000e+00,0.000000000000000000e+00,0.000000000000000000e+00
1.515151515151515194e-01,2.560172059542269007e+00,1.323114690076677459e-03,1.323114690076677459e-03,1.273437688900800890e-01
3.030303030303030387e-01,2.554265349542482078e+00,5.290032905107949594e-03,5.290032905107949594e-03,3.577653200771712116e-01
4.545454545454545858e-01,2.545716632597760487e+00,1.190042704780138599e-02,1.190042704780138599e-02,6.912519173763741476e-01
6.060606060606060774e-01,2.534522106671722508e+00,2.115809804209398473e-02,2.115809804209398473e-02,1.127951878738084224e+00
7.575757575757575690e-01,2.520674317658301522e+00,3.307049888245187225e-02,3.307049888245187225e-02,1.668155989842086795e+00
9.090909090909091717e-01,2.504162799257354965e+00,4.764809475825645263e-02,4.764809475825645263e-02,2.312272542464027580e+00
1.060606060606060552e+00,2.484974860054839585e+00,6.490357597363276276e-02,6.490357597363276276e-02,3.060796630371962479e+00
1.212121212121212155e+00,2.463096555604714410e+00,8.485088586554341561e-02,8.485088586554341561e-02,3.914272228280634369e+00
1.363636363636363757e+00,2.438513781431464356e+00,1.075041278012650453e-01,1.075041278012650453e-01,4.873249553676085810e+00
1.515151515151515138e+00,2.411213523419876825e+00,1.328763147886110052e-01,1.328763147886110052e-01,5.938236288942372987e+00
1.666666666666666741e+00,2.381185222787361333e+00,1.609780045036112162e-01,1.609780045036112162e-01,7.109644333607867850e+00
1.818181818181818343e+00,2.348422264679416394e+00,1.918158106950450525e-01,1.918158106950450525e-01,8.387731734035968501e+00
1.969696969696969724e+00,2.312923547968960492e+00,2.253908333851077361e-01,2.253908333851077361e-01,9.772541445342165289e+00
2.121212121212121104e+00,2.274695148157444891e+00,2.616969959683004276e-01,2.616969959683004276e-01,1.126383646139805350e+01
2.272727272727272929e+00,2.233752021336928628e+00,3.007193412493506801e-01,3.007193412493506801e-01,1.286103334304172208e+01
2.424242424242424310e+00,2.190119709978540108e+00,3.424323256547541217e-01,3.424323256547541217e-01,1.456313567504053097e+01
2.575757575757575690e+00,2.143836126011124499e+00,3.867980361541236145e-01,3.867980361541236145e-01,1.636866450795336903e+01
2.727272727272727515e+00,2.094953154698941944e+00,4.337645863824899917e-01,4.337645863824899362e-01,1.827559579064601536e+01
2.878787878787878896e+00,2.043538340107883045e+00,4.832644311740889043e-01,4.832644311740889043e-01,2.028129462002748795e+01
3.030303030303030276e+00,1.989676393164496737e+00,5.352128585033300023e-01,5.352128585033300023e-01,2.238245641146460940e+01
3.181818181818182101e+00,1.933470431892474695e+00,5.895067492483115901e-01,5.895067492483115901e-01,2.457505851699002974e+01
3.333333333333333481e+00,1.875043401796761877e+00,6.460231568067129615e-01,6.460231568067129615e-01,2.685430481592711160e+01
3.484848484848484862e+00,1.814538750175204385e+00,7.046186327841392760e-01,7.046186327841392760e-01,2.921459940990188642e+01
3.636363636363636687e+00,1.752121301456640134e+00,7.651283516560382081e-01,7.651283516560382081e-01,3.164951247578646232e+01
3.787878787878788067e+00,1.687977785847219581e+00,8.273655821213723449e-01,8.273655821213723449e-01,3.415175964313499435e+01
3.939393939393939448e+00,1.622316448068616968e+00,8.911220783644095977e-01,8.911220783644095977e-01,3.671321725735863595e+01
4.090909090909090828e+00,1.555367581875430449e+00,9.561675455373240817e-01,9.561675455373239707e-01,3.932490152812992790e+01
4.242424242424242209e+00,1.487382261703989350e+00,1.022250908111385526e+00,1.022250908111385526e+00,4.197701800793333859e+01
4.393939393939394478e+00,1.418631367516052233e+00,1.089101285033261979e+00,1.089101285033261979e+00,4.465899963304367049e+01
4.545454545454545858e+00,1.349404955288727948e+00,1.156428619235098321e+00,1.156428619235098321e+00,4.735953128079893304e+01
4.696969696969697239e+00,1.280009683998279524e+00,1.223926250650709147e+00,1.223926250650709147e+00,5.006665014330800290e+01
4.848484848484848619e+00,1.210767436700022959e+00,1.291272295135682979e+00,1.291272295135682979e+00,5.276779951930918600e+01
5.000000000000000000e+00,1.142012144225047265e+00,1.358132820770660665e+00,1.358132820770660665e+00,5.544995272218821469e+01
5.151515151515151381e+00,1.074087572107928157e+00,1.424164060933621245e+00,1.424164060933621245e+00,5.809969941222556855e+01
5.303030303030302761e+00,1.007344550082172274e+00,1.489015184804433289e+00,1.489015184804433289e+00,6.070335367435180274e+01
5.454545454545455030e+00,9.421366437174101272e-01,1.552332625727666171e+00,1.552332625727666171e+00,6.324712286816242113e+01
5.606060606060606410e+00,8.788177593972822388e-01,1.613762476234702037e+00,1.613762476234702037e+00,6.571720105805258072e+01
5.757575757575757791e+00,8.177378167243589679e-01,1.672954815638814097e+00,1.672954815638814097e+00,6.809993783328299344e+01
5.909090909090909172e+00,7.592395374163207755e-01,1.729566921138986135e+00,1.729566921138986135e+00,7.038196357357161048e+01
6.060606060606060552e+00,7.036543693280072898e-01,1.783267343797864335e+00,1.783267343797864335e+00,7.255034845354140316e+01
6.212121212121211933e+00,6.512988463363270641e-01,1.833739548656846186e+00,1.833739548656846186e+00,7.459274444409952309e+01
6.363636363636364202e+00,6.024713714719990287e-01,1.880685131604334037e+00,1.880685131604334037e+00,7.649751080290046445e+01
6.515151515151515582e+00,5.574482115251830905e-01,1.923827824770112604e+00,1.923827824770112604e+00,7.825387032531885723e+01
6.666666666666666963e+00,5.164806845755847142e-01,1.962916308995236836e+00,1.962916308995236836e+00,7.985201905927836208e+01
6.818181818181818343e+00,4.797921529314875810e-01,1.997727220892999700e+00,1.997727220892999700e+00,8.128324361110408347e+01
6.969696969696969724e+00,4.475755757145013503e-01,2.028067600264187309e+00,2.028067600264187309e+00,8.254001661952068503e+01
7.121212121212121104e+00,4.199911783522813913e-01,2.053777220604353637e+00,2.053777220604353637e+00,8.361608766905472123e+01
7.272727272727273373e+00,3.971646020529133181e-01,2.074730439629439260e+00,2.074730439629439260e+00,8.450655547928758438e+01
7.424242424242424754e+00,3.791858175232915573e-01,2.090837285557392011e+00,2.090837285557392011e+00,8.520791028084774155e+01
7.575757575757576134e+00,3.661081239979679380e-01,2.102044458079313838e+00,2.102044458079313838e+00,8.571807286342976795e+01
7.727272727272727515e+00,3.579478189882877026e-01,2.108335658610327901e+00,2.108335658610327901e+00,8.603640745892508335e+01
7.878787878787878896e+00,3.546843126566588955e-01,2.109731475915308074e+00,2.109731475915308074e+00,8.616371727966622984e+01
8.030303030303031164e+00,3.562607578229659566e-01,2.106288756102465243e+00,2.106288756102465243e+00,8.610221994179202909e+01
8.181818181818181657e+00,3.625850476578987291e-01,2.098099604930013129e+00,2.098099604930013129e+00,8.585550854509665442e+01
8.333333333333333925e+00,3.735313594233813372e-01,2.085289844065744358e+00,2.085289844065744358e+00,8.542849145150800894e+01
8.484848484848484418e+00,3.889420896900265268e-01,2.068017075869575727e+00,2.068017075869575727e+00,8.482731679199460473e+01
8.636363636363636687e+00,4.086300162320546936e-01,2.046468521498622906e+00,2.046468521498622906e+00,8.405928813075421147e+01
8.787878787878788955e+00,4.323810668301285576e-01,2.020858252104368979e+00,2.020858252104368979e+00,8.313275645384294421e+01
8.939393939393939448e+00,4.599570450721456871e-01,1.991424463031872261e+00,1.991424463031872483e+00,8.205701383531987858e+01
9.090909090909091717e+00,4.910987316468130581e-01,1.958426372526188786e+00,1.958426372526188786e+00,8.084217245536794394e+01
9.242424242424242209e+00,5.255293422242323098e-01,1.922140763851786893e+00,1.922140763851786893e+00,7.949902970790721213e+01
9.393939393939394478e+00,5.629575016158360201e-01,1.882859011132612892e+00,1.882859011132612892e+00,7.803895217821605002e+01
9.545454545454544970e+00,6.030810367177199538e-01,1.840883286408755204e+00,1.840883286408755204e+00,7.647372767970176710e+01
9.696969696969697239e+00,6.455902123263631553e-01,1.796523323820722551e+00,1.796523323820722551e+00,7.481543902429437765e+01
9.848484848484849508e+00,6.901710899097851515e-01,1.750093060838290970e+00,1.750093060838290970e+00,7.307633299633219792e+01
1.000000000000000000e+01,7.365087970483475965e-01,1.701907368819695954e+00,1.701907368819695954e+00,7.126869281123663313e+01
1.015151515151515227e+01,7.842905563951767522e-01,1.652279024051214629e+00,1.652279024051214851e+00,6.940471995535885696e+01
1.030303030303030276e+01,8.332087822745561922e-01,1.601515611148770946e+00,1.601515611148770946e+00,6.749641338726024742e+01
1.045454545454545503e+01,8.829635129730707410e-01,1.549917090766785410e+00,1.549917090766785410e+00,6.555547465370784721e+01
1.060606060606060552e+01,9.332650528431940540e-01,1.497773157494597385e+00,1.497773157494597385e+00,6.359320482085821880e+01
1.075757575757575779e+01,9.838361594029372270e-01,1.445361052756805709e+00,1.445361052756805709e+00,6.162041915520609336e+01
1.090909090909091006e+01,1.034413573153821320e+00,1.392944034995301950e+00,1.392944034995301950e+00,5.964738744517963198e+01
1.106060606060606055e+01,1.084750232618555410e+00,1.340769164631590460e+00,1.340769164631590460e+00,5.768374759222277959e+01
1.121212121212121282e+01,1.134615944518696073e+00,1.289066633889125679e+00,1.289066633889125679e+00,5.573847946707468282e+01
1.136363636363636331e+01,1.183798616262115022e+00,1.238048534305846937e+00,1.238048534305846715e+00,5.381985683026792344e+01
1.151515151515151558e+01,1.232105114145559899e+00,1.187907998531615439e+00,1.187907998531615439e+00,5.193541385353115203e+01
1.166666666666666785e+01,1.279361370456660651e+00,1.138819093226209889e+00,1.138819093226209889e+00,5.009194094172553235e+01
1.181818181818181834e+01,1.325413007107443697e+00,1.090936195425806332e+00,1.090936195425806554e+00,4.829546040481742608e+01
1.196969696969697061e+01,1.370124524740943484e+00,1.044394803436373032e+00,1.044394803436373032e+00,4.655125809093852496e+01
1.212121212121212110e+01,1.413379589232119260e+00,9.993112503327461482e-01,9.993112503327461482e-01,4.486387220994657810e+01
1.227272727272727337e+01,1.455080185196067077e+00,9.557835504504202939e-01,9.557835504504201829e-01,4.323712635518383962e+01
1.242424242424242387e+01,1.495145969241338024e+00,9.138920461322324051e-01,9.138920461322324051e-01,4.167415473315205787e+01
1.257575757575757613e+01,1.533513459352291441e+00,8.737002183460051974e-01,8.737002183460051974e-01,4.017743378581586455e+01
1.272727272727272840e+01,1.570134707480534741e+00,8.352560140931019061e-01,8.352560140931019061e-01,3.874883397298916776e+01
1.287878787878787890e+01,1.604976475394081614e+00,7.985926705592787389e-01,7.985926705592787389e-01,3.738965192257028747e+01
1.303030303030303116e+01,1.638018709987197230e+00,7.637302398048291252e-01,7.637302398048291252e-01,3.610066990890987881e+01
1.318181818181818166e+01,1.669253333783541127e+00,7.306767982614440493e-01,7.306767982614439383e-01,3.488220303544589740e+01
1.333333333333333393e+01,1.698682775393164146e+00,6.994299162752151133e-01,6.994299162752151133e-01,3.373415656177377286e+01
1.348484848484848442e+01,1.726318508348712255e+00,6.699781192704292732e-01,6.699781192704292732e-01,3.265608290384248846e+01
1.363636363636363669e+01,1.752179686381551083e+00,6.423022524734441907e-01,6.423022524734441907e-01,3.164723487201644403e+01
1.378787878787878896e+01,1.776291560110238033e+00,6.163770642242140108e-01,6.163770642242140108e-01,3.070662743627103808e+01
1.393939393939393945e+01,1.798683979030846203e+00,5.921727039859651098e-01,5.921727039859649988e-01,2.983309616375150952e+01
1.409090909090909172e+01,1.819390106710281785e+00,5.696560071518810275e-01,5.696560071518810275e-01,2.902534733925435262e+01
1.424242424242424221e+01,1.838444928369680653e+00,5.487919874617016580e-01,5.487919874617016580e-01,2.828201618459965516e+01
1.439393939393939448e+01,1.855883914409629742e+00,5.295451734765042051e-01,5.295451734765042051e-01,2.760171899469189682e+01
1.454545454545454675e+01,1.871741848371838657e+00,5.118807806170271313e-01,5.118807806170271313e-01,2.698309885889270632e+01
1.469696969696969724e+01,1.886051621690982838e+00,4.957659164118317086e-01,4.957659164118317086e-01,2.642487267791348060e+01
1.484848484848484951e+01,1.898843163441448878e+00,4.811706507505506547e-01,4.811706507505506547e-01,2.592587291453875409e+01
1.500000000000000000e+01,1.910142578931053103e+00,4.680688772901727135e-01,4.680688772901727135e-01,2.548508119720101917e+01
